"Time (s)","Linear Acceleration x (m/s^2)","Linear Acceleration y (m/s^2)","Linear Acceleration z (m/s^2)","Absolute acceleration (m/s^2)"
9.955696000E-3,-1.976156235E-2,-4.712789133E-2,-2.511692047E-2,5.694222670E-2
1.465772800E-2,-5.045795441E-2,-9.811185300E-2,-2.372264862E-2,1.128481498E-1
1.945548800E-2,-8.371114731E-2,-1.436567307E-1,-4.144668579E-3,1.663189428E-1
2.425324900E-2,-1.241092682E-1,-1.791140437E-1,3.023910522E-2,2.199985332E-1
2.905100900E-2,-1.728181839E-1,-2.034975290E-1,5.240249634E-2,2.720723996E-1
3.384876900E-2,-2.208251953E-1,-2.072551250E-1,5.913639069E-2,3.085701970E-1
3.864647800E-2,-2.559514046E-1,-1.934014559E-1,5.029296875E-2,3.247223850E-1
4.344423800E-2,-2.860894203E-1,-1.707710624E-1,2.695178986E-2,3.342698179E-1
4.824199900E-2,-2.967767715E-1,-1.425852478E-1,-1.893329620E-2,3.297961108E-1
5.303975900E-2,-2.960128784E-1,-1.141516864E-1,-1.016168594E-1,3.331369355E-1
5.783751900E-2,-2.799277306E-1,-7.720834017E-2,-2.084145546E-1,3.574315161E-1
6.263522800E-2,-2.483668327E-1,-3.089392185E-2,-3.471608162E-1,4.279733056E-1
6.743298800E-2,-1.534848213E-1,7.472175360E-2,-5.136518478E-1,5.412754859E-1
7.223074900E-2,-7.410144806E-2,1.858644187E-1,-6.804394722E-1,7.092492383E-1
7.702850900E-2,-1.128101349E-2,2.446401715E-1,-8.018193245E-1,8.383855342E-1
8.182621700E-2,3.706932068E-2,2.091628909E-1,-9.188289642E-1,9.430641097E-1
8.662397800E-2,5.268621445E-2,1.498973966E-1,-1.072009087E0,1.083719774E0
9.142173800E-2,6.778955460E-2,9.639909863E-2,-1.151908398E0,1.157921054E0
9.621949900E-2,3.065156937E-2,5.514740944E-2,-1.104372025E0,1.106172827E0
1.010172590E-1,-4.292726517E-2,-1.018518209E-2,-1.051244259E0,1.052169654E0
1.058149670E-1,-1.348342896E-1,-9.070998430E-2,-1.007672787E0,1.020692428E0
1.106127280E-1,-3.443408012E-1,-1.694890857E-1,-9.927577972E-1,1.064361396E0
1.154104880E-1,-5.235056877E-1,-2.298282385E-1,-9.000782967E-1,1.066311476E0
1.202082490E-1,-6.423664093E-1,-2.693374157E-1,-7.625546455E-1,1.032795640E0
1.250059570E-1,-7.191953659E-1,-2.832692862E-1,-6.179909706E-1,9.896445334E-1
1.298037170E-1,-7.593150139E-1,-2.781680822E-1,-4.885473251E-1,9.447831821E-1
1.346014780E-1,-7.702088356E-1,-2.738826275E-1,-3.588871956E-1,8.927672503E-1
1.393992380E-1,-7.451739311E-1,-2.869575024E-1,-2.326622009E-1,8.317214050E-1
1.441969990E-1,-6.804275513E-1,-3.169956207E-1,-9.990406036E-2,7.572639549E-1
1.489947070E-1,-5.954699516E-1,-3.680529594E-1,2.815246582E-2,7.005997471E-1
1.537924670E-1,-4.859824181E-1,-4.324765205E-1,1.452546120E-1,6.665686415E-1
1.585902280E-1,-3.920059204E-1,-5.307446718E-1,2.474532127E-1,7.046925860E-1
1.633879880E-1,-2.638573647E-1,-6.382870674E-1,3.475828171E-1,7.732043094E-1
1.681856960E-1,-1.162180901E-1,-7.100392580E-1,4.579420090E-1,8.528618153E-1
1.729834570E-1,3.606271744E-2,-7.506389618E-1,5.946216583E-1,9.582975984E-1
1.777812170E-1,1.707592010E-1,-7.711656094E-1,7.748398781E-1,1.106450152E0
1.825789780E-1,2.889728546E-1,-7.867995501E-1,9.961576462E-1,1.301878988E0
1.873767380E-1,3.873314857E-1,-8.074321747E-1,1.242394924E0,1.531508258E0
1.921744460E-1,4.864974022E-1,-8.403785229E-1,1.458732128E0,1.752374163E0
1.969722070E-1,5.811052322E-1,-8.693708181E-1,1.659414291E0,1.961413954E0
2.017699670E-1,6.753215790E-1,-8.906973600E-1,1.853555202E0,2.164501770E0
2.065677280E-1,7.704024315E-1,-9.056973457E-1,2.037647247E0,2.359197722E0
2.113654360E-1,9.310655594E-1,-7.937617302E-1,2.291763306E0,2.597906813E0
2.161631960E-1,1.148780346E0,-5.314407349E-1,2.570563793E0,2.865296451E0
2.209609570E-1,1.238200188E0,-3.805619478E-1,2.671094894E0,2.968621740E0
2.257587170E-1,1.169326782E0,-3.898515701E-1,2.626897335E0,2.901706219E0
2.305564780E-1,1.108622074E0,-4.659892321E-1,2.534569263E0,2.805393060E0
2.353541860E-1,1.130986214E0,-5.263288021E-1,2.430307388E0,2.731766063E0
2.401519460E-1,1.182310104E0,-4.955298901E-1,2.331634521E0,2.660813146E0
2.449497070E-1,1.244345665E0,-3.840758801E-1,2.255070686E0,2.604084141E0
2.497474670E-1,1.304520607E0,-2.504932880E-1,2.184922695E0,2.557031108E0
2.545452280E-1,1.393453598E0,-1.420327425E-1,2.130370140E0,2.549580978E0
2.593429360E-1,1.471391201E0,-4.615116119E-2,2.089630127E0,2.556105644E0
2.641406960E-1,1.558146954E0,5.385601521E-2,2.058769703E0,2.582490095E0
2.689384570E-1,1.577226639E0,1.251310110E-1,1.966407299E0,2.523897642E0
2.737362170E-1,1.549890995E0,1.331356764E-1,1.810811520E0,2.387242251E0
2.785339260E-1,1.531629086E0,1.003170013E-1,1.650601864E0,2.253982624E0
2.833316860E-1,1.555617809E0,6.245195866E-2,1.521908283E0,2.177166011E0
2.881294460E-1,1.631084442E0,6.624329090E-2,1.422759533E0,2.165425898E0
2.929272070E-1,1.748545647E0,1.200577021E-1,1.325759888E0,2.197604380E0
2.977249670E-1,1.893740177E0,2.015248537E-1,1.234276772E0,2.269427962E0
3.025226760E-1,2.047433376E0,2.982527018E-1,1.153372288E0,2.368798374E0
3.073204360E-1,2.195163250E0,3.863959312E-1,1.092503071E0,2.482258341E0
3.121181960E-1,2.320075989E0,4.614776373E-1,1.044230938E0,2.585755684E0
3.169159570E-1,2.437837124E0,5.312029123E-1,1.047404766E0,2.705971752E0
3.217136650E-1,2.530779362E0,6.026628017E-1,1.123331070E0,2.833711228E0
3.265114260E-1,2.526122570E0,6.354031563E-1,1.143984795E0,2.844948790E0
3.313091860E-1,2.437038898E0,6.132098436E-1,1.127299786E0,2.754267545E0
3.361069460E-1,2.294579029E0,5.599107742E-1,1.129595280E0,2.618124995E0
3.409046550E-1,2.107364655E0,5.131795406E-1,1.214259148E0,2.485712032E0
3.457024150E-1,1.876756191E0,4.915614128E-1,1.379720688E0,2.380646047E0
3.505001760E-1,1.606587410E0,4.903271198E-1,1.572705746E0,2.301075217E0
3.552979360E-1,1.305634022E0,5.051395893E-1,1.781227589E0,2.265528178E0
3.600956960E-1,9.899978638E-1,5.457916260E-1,1.989193916E0,2.287985294E0
3.648934050E-1,6.499567032E-1,6.097359657E-1,2.183368206E0,2.358244768E0
3.696911650E-1,3.020319939E-1,7.038521767E-1,2.372067928E0,2.492656709E0
3.744889260E-1,-3.272628784E-2,8.020768166E-1,2.561271191E0,2.684121521E0
3.792866860E-1,-3.544845581E-1,8.714518547E-1,2.719735146E0,2.877854565E0
3.840844460E-1,-6.489143372E-1,9.335694313E-1,2.824433565E0,3.044678417E0
3.888821550E-1,-9.299440384E-1,1.037522554E0,2.871742249E0,3.191888549E0
3.936799150E-1,-1.204279900E0,1.210517883E0,2.865046263E0,3.335286151E0
3.984776760E-1,-1.457180023E0,1.460458517E0,2.805464745E0,3.482376363E0
4.032754360E-1,-1.678574562E0,1.788021088E0,2.687567234E0,3.638358092E0
4.080731440E-1,-1.891530037E0,2.182038307E0,2.496666670E0,3.817397217E0
4.128709050E-1,-2.099827766E0,2.602956295E0,2.246633530E0,4.028898154E0
4.176686650E-1,-2.328137398E0,3.008781195E0,1.970299006E0,4.284281292E0
4.224664260E-1,-2.560363770E0,3.374286652E0,1.676844597E0,4.555554943E0
4.272641860E-1,-2.804451942E0,3.691341877E0,1.382223845E0,4.837509515E0
4.320618940E-1,-3.073853493E0,3.947948456E0,1.145711899E0,5.132984323E0
4.368596550E-1,-3.344705582E0,4.144476891E0,1.010175467E0,5.420719380E0
4.416574150E-1,-3.596049309E0,4.267518520E0,9.634270668E-1,5.663168430E0
4.464551760E-1,-3.835387230E0,4.303936005E0,9.540853500E-1,5.843315770E0
4.512529360E-1,-4.076742172E0,4.280488968E0,9.536957741E-1,5.987649637E0
4.560506440E-1,-4.324294090E0,4.230507374E0,9.488892555E-1,6.123487800E0
4.608484050E-1,-4.570468903E0,4.142089367E0,9.311344624E-1,6.238036686E0
4.656461650E-1,-4.810578346E0,4.015775204E0,9.033104181E-1,6.331199272E0
4.704439260E-1,-5.052061081E0,3.875638962E0,8.955245018E-1,6.430074857E0
4.752416340E-1,-5.276623726E0,3.726844549E0,9.222728014E-1,6.525543300E0
4.800393940E-1,-5.459021568E0,3.576956272E0,9.554806948E-1,6.596095513E0
4.848371550E-1,-5.599991798E0,3.447679043E0,9.426558018E-1,6.643417711E0
4.896349150E-1,-5.687963486E0,3.376616001E0,8.517960310E-1,6.669334353E0
4.944326240E-1,-5.704333305E0,3.377217770E0,6.986616850E-1,6.665819265E0
4.992303840E-1,-5.640205383E0,3.427484751E0,4.778164625E-1,6.617240894E0
5.040281440E-1,-5.494007111E0,3.489296675E0,2.099698782E-1,6.511788753E0
5.088259050E-1,-5.259713173E0,3.544476032E0,-8.676838875E-2,6.343139740E0
5.136236650E-1,-4.945664406E0,3.572876453E0,-3.826780319E-1,6.113222149E0
5.184213740E-1,-4.564848900E0,3.568736553E0,-6.675078869E-1,5.832606008E0
5.232191340E-1,-4.137288094E0,3.521695614E0,-9.218608737E-1,5.510836619E0
5.280168940E-1,-3.665970802E0,3.435641050E0,-1.213235736E0,5.168647047E0
5.328146550E-1,-3.163387299E0,3.319182873E0,-1.480854869E0,4.818394472E0
5.376123630E-1,-2.627481461E0,3.181133986E0,-1.887945533E0,4.537357226E0
5.424101240E-1,-2.027867317E0,3.026048422E0,-2.422290325E0,4.374552014E0
5.472078840E-1,-1.315651894E0,2.821581841E0,-3.280966759E0,4.522942279E0
5.520056440E-1,-5.304946899E-1,2.600068569E0,-4.320086479E0,5.070002798E0
5.568034050E-1,2.708597183E-1,2.340652227E0,-5.447456837E0,5.935217252E0
5.616011130E-1,1.007459641E0,2.024739265E0,-6.490969181E0,6.873661683E0
5.663988740E-1,1.627137661E0,1.658990860E0,-7.178231716E0,7.544987622E0
5.711966340E-1,2.102165222E0,1.265985250E0,-7.237893581E0,7.642572916E0
5.759943940E-1,2.421186447E0,9.132070541E-1,-6.669606209E0,7.154001532E0
5.807921550E-1,2.598015785E0,5.759291649E-1,-5.715272903E0,6.304421051E0
5.855898630E-1,2.644816875E0,2.610909939E-1,-4.601037502E0,5.313451883E0
5.903876240E-1,2.633646011E0,-6.484127045E-2,-3.428992987E0,4.324151779E0
5.951853840E-1,2.567915916E0,-3.507902622E-1,-2.336569309E0,3.489527489E0
5.999831440E-1,2.465560436E0,-5.420675278E-1,-1.384036660E0,2.878955183E0
6.047808530E-1,2.339342594E0,-5.844807625E-1,-6.044443846E-1,2.485858916E0
6.095786130E-1,2.209772587E0,-4.439892769E-1,-7.481539249E-2,2.255175981E0
6.143763740E-1,2.063818932E0,-2.145345211E-1,2.047878504E-1,2.085020793E0
6.191741340E-1,1.901556492E0,4.968643188E-4,2.900286913E-1,1.923547239E0
6.239718420E-1,1.709819317E0,1.670038700E-1,3.042854071E-1,1.744695388E0
6.287696030E-1,1.478112698E0,2.777018547E-1,4.534553289E-1,1.570846015E0
6.335673630E-1,9.360218048E-1,2.321703434E-1,5.372120142E-1,1.103918763E0
6.383651240E-1,2.399682999E-1,1.291532516E-1,5.397205353E-1,6.046185604E-1
6.431628840E-1,-3.779468536E-1,1.899216175E-1,6.959496737E-1,8.144077561E-1
6.479605920E-1,-8.987989426E-1,3.782553673E-1,1.051843524E0,1.434326135E0
6.527583530E-1,-1.326317787E0,5.993280411E-1,1.448616266E0,2.053485345E0
6.575561130E-1,-1.702560425E0,8.083298206E-1,1.839373708E0,2.633515661E0
6.623538740E-1,-1.962255478E0,9.862639904E-1,2.234832048E0,3.133310949E0
6.671516340E-1,-2.035539627E0,9.901211262E-1,2.521964550E0,3.388814927E0
6.719493420E-1,-1.967669487E0,7.583374977E-1,2.674505234E0,3.405844567E0
6.767471030E-1,-1.820511818E0,3.263745308E-1,2.716069221E0,3.286002987E0
6.815448630E-1,-1.536759377E0,-1.922187805E-1,2.567852974E0,2.998740792E0
6.863426240E-1,-1.224229813E0,-6.417298317E-1,2.282760620E0,2.668623589E0
6.911403320E-1,-8.224439621E-1,-9.609303474E-1,1.803826809E0,2.203087007E0
6.959380920E-1,-4.303855896E-1,-1.160826683E0,1.213815689E0,1.733810506E0
7.007358530E-1,-1.410322189E-1,-1.269911766E0,5.459286571E-1,1.389461795E0
7.055336130E-1,6.978034973E-2,-1.294442177E0,-1.437362432E-1,1.304266059E0
7.103313740E-1,2.593202591E-1,-1.320371628E0,-7.470729351E-1,1.539073164E0
7.151290820E-1,4.204301834E-1,-1.387617111E0,-1.215599298E0,1.892068826E0
7.199268420E-1,4.375381470E-1,-1.470980167E0,-1.489732504E0,2.138813974E0
7.247246030E-1,3.339900970E-1,-1.524394989E0,-1.554343939E0,2.202569987E0
7.295223630E-1,1.288557053E-1,-1.498524666E0,-1.506587029E0,2.128845800E0
7.343200710E-1,-1.615886688E-1,-1.450408936E0,-1.282891750E0,1.943092438E0
7.391178320E-1,-4.913339615E-1,-1.422861576E0,-9.723527431E-1,1.792041848E0
7.439155920E-1,-8.319711685E-1,-1.376489162E0,-6.846410036E-1,1.748036539E0
7.487133530E-1,-1.148186684E0,-1.262075901E0,-4.187663794E-1,1.756853301E0
7.535110610E-1,-1.419397354E0,-1.149247646E0,-1.922212839E-1,1.836411725E0
7.583088210E-1,-1.632354736E0,-1.081279278E0,1.235044003E-2,1.958034575E0
7.631065820E-1,-1.787694931E0,-1.049376488E0,1.660014391E-1,2.079567421E0
7.679043420E-1,-1.890496254E0,-1.021590710E0,3.399560452E-1,2.175590443E0
7.727021030E-1,-1.922571182E0,-9.870634079E-1,5.137905478E-1,2.221385795E0
7.774998110E-1,-1.571585655E0,-1.104304790E0,5.562845469E-1,1.999705738E0
7.822975710E-1,-1.107216835E0,-1.406628132E0,4.650020599E-1,1.849529328E0
7.870953320E-1,-5.306205750E-1,-1.700041294E0,4.002374411E-1,1.825346160E0
7.918930920E-1,1.087789536E-1,-1.897837162E0,3.873978853E-1,1.940024710E0
7.966908530E-1,7.524218559E-1,-2.002302647E0,4.075503945E-1,2.177487511E0
8.014885610E-1,1.365106106E0,-2.008071423E0,4.111965895E-1,2.462711545E0
8.062863210E-1,2.031222343E0,-1.964714050E0,3.140059710E-1,2.843336993E0
8.110840820E-1,2.782543182E0,-1.878962040E0,1.024483442E-1,3.359098178E0
8.158818420E-1,3.869072914E0,-1.835200787E0,-1.902730465E-1,4.286477689E0
8.206796030E-1,5.494792938E0,-1.838429451E0,-3.360081911E-1,5.803918830E0
8.254773110E-1,5.954210758E0,-1.533305168E0,5.550801754E-2,6.148717885E0
8.302750710E-1,5.716706753E0,-1.176890850E0,7.678125501E-1,5.886878993E0
8.350728320E-1,5.017073631E0,-4.799671173E-1,1.628904462E0,5.296671219E0
8.398705920E-1,4.050481796E0,6.663923264E-1,2.086834192E0,4.604927628E0
8.446683010E-1,2.692714691E0,2.273203850E0,1.833406210E0,3.972347729E0
8.494660610E-1,6.692328453E-1,4.153499126E0,-2.379081249E-1,4.213790202E0
8.542638210E-1,-1.735189438E0,6.018182278E0,-1.829316258E0,6.525013279E0
8.590615820E-1,-3.608800888E0,6.849808216E0,-2.139842033E0,8.032573708E0
8.638592900E-1,-4.657968998E0,6.414402008E0,-1.752226949E0,8.118591478E0
8.686570510E-1,-5.440515995E0,5.116783142E0,-9.934924841E-1,7.534435037E0
8.734548110E-1,-6.175747871E0,3.477888584E0,1.448596716E-1,7.089185785E0
8.782525710E-1,-6.774756432E0,2.097291946E0,1.362011075E0,7.221567170E0
8.830503320E-1,-7.098956585E0,1.277575016E0,2.182365179E0,7.535920666E0
8.878480400E-1,-6.898552895E0,8.704781532E-1,2.582867622E0,7.417477294E0
8.926458010E-1,-6.466844559E0,7.552423477E-1,2.216446877E0,6.877725373E0
8.974435610E-1,-5.945639610E0,8.610453606E-1,1.345492005E0,6.156490739E0
9.022413210E-1,-5.299753666E0,1.053287029E0,3.643066585E-1,5.415673719E0
9.070390300E-1,-4.587291718E0,1.309113503E0,-4.883274138E-1,4.795361001E0
9.118367900E-1,-3.870478630E0,1.622076511E0,-1.141808510E0,4.349191156E0
9.166345510E-1,-3.208547115E0,1.930400848E0,-1.625904560E0,4.082252768E0
9.214323110E-1,-2.614879608E0,2.267191887E0,-1.968244791E0,3.981424616E0
9.262300710E-1,-2.081488609E0,2.582098484E0,-2.232251167E0,3.997846006E0
9.310277800E-1,-1.666682243E0,2.903085232E0,-2.502892017E0,4.179737075E0
9.358255400E-1,-1.324353695E0,3.258762836E0,-2.661491156E0,4.411007040E0
9.406233010E-1,-1.070850372E0,3.570771694E0,-2.798031569E0,4.661127725E0
9.454210610E-1,-8.917136192E-1,3.811287642E0,-2.769892931E0,4.795140615E0
9.502188210E-1,-8.365111351E-1,3.975917101E0,-2.652039289E0,4.851904787E0
9.550165300E-1,-8.733553886E-1,4.126556873E0,-2.454025745E0,4.879904059E0
9.598142900E-1,-9.923400879E-1,4.263338566E0,-2.183694363E0,4.891759974E0
9.646120510E-1,-1.124732971E0,4.341931820E0,-1.808070183E0,4.835960501E0
9.694098110E-1,-1.228929996E0,4.316585541E0,-1.396378040E0,4.700324595E0
9.742075190E-1,-1.282837391E0,4.163561344E0,-8.630858660E-1,4.441377269E0
9.790052800E-1,-1.271594048E0,3.863948107E0,-3.852648139E-1,4.086009712E0
9.838030400E-1,-1.243993282E0,3.500439405E0,4.652474821E-2,3.715206572E0
9.886008010E-1,-1.183526516E0,3.099601507E0,5.031082034E-1,3.355798323E0
9.933985610E-1,-1.137453079E0,2.708510876E0,8.775134683E-1,3.065919203E0
9.981962690E-1,-1.026546478E0,2.378703594E0,1.210705519E0,2.859691647E0
1.002994030E0,-7.198019028E-1,2.097404480E0,1.473351479E0,2.662326973E0
1.007791790E0,-3.456168175E-1,1.753359318E0,1.552256942E0,2.367112480E0
1.012589551E0,1.393465996E-1,1.324523926E0,1.581304073E0,2.067438917E0
1.017387311E0,6.710214615E-1,8.103847504E-1,1.524370670E0,1.852214671E0
1.022185019E0,1.133255482E0,2.936997414E-1,1.371860147E0,1.803476583E0
1.026982780E0,1.501547337E0,-2.362031937E-1,1.409069896E0,2.072658757E0
1.031780540E0,1.874786854E0,-8.418140411E-1,1.403803468E0,2.488803086E0
1.036578301E0,2.218747139E0,-1.548286915E0,1.209747195E0,2.963700308E0
1.041376009E0,2.450048923E0,-2.157706261E0,7.892220020E-1,3.358765756E0
1.046173769E0,2.536302567E0,-2.490372658E0,1.607010067E-1,3.558175304E0
1.050971530E0,2.491123199E0,-2.544125080E0,-5.362827778E-1,3.600814691E0
1.055769290E0,2.314506054E0,-2.345979691E0,-1.245568156E0,3.523066706E0
1.060566999E0,2.056602478E0,-1.963239670E0,-1.852183700E0,3.393303436E0
1.065364759E0,1.684247494E0,-1.522535801E0,-2.321273804E0,3.247016624E0
1.070162519E0,1.275774479E0,-1.056308270E0,-2.617936134E0,3.097898850E0
1.074960280E0,7.734775543E-1,-6.825652122E-1,-2.731713533E0,2.920003703E0
1.079758040E0,2.152209282E-1,-4.188175201E-1,-2.757216692E0,2.797136402E0
1.084555749E0,-3.116769791E-1,-2.822289467E-1,-2.684488773E0,2.717218374E0
1.089353509E0,-7.994771004E-1,-2.537450790E-1,-2.550594807E0,2.684973755E0
1.094151269E0,-1.245053768E0,-3.100099564E-1,-2.402931213E0,2.724030740E0
1.098949030E0,-1.854287148E0,-6.215109825E-1,-2.314396381E0,3.030030914E0
1.103746738E0,-2.296018600E0,-8.697037697E-1,-2.031004906E0,3.186387765E0
1.108544499E0,-2.391435623E0,-9.155669212E-1,-1.728024721E0,3.089222647E0
1.113342259E0,-2.341051579E0,-8.211312294E-1,-1.482777596E0,2.890226356E0
1.118140019E0,-2.251786709E0,-6.572155952E-1,-1.230740070E0,2.648999215E0
1.122937780E0,-2.123754978E0,-4.764676094E-1,-9.157782197E-1,2.361356885E0
1.127735488E0,-2.039360523E0,-3.372602463E-1,-6.157731414E-1,2.156829242E0
1.132533249E0,-2.003464699E0,-2.319111824E-1,-3.631486893E-1,2.049275620E0
1.137331009E0,-2.015478134E0,-1.342806816E-1,-1.365390420E-1,2.024555833E0
1.142128769E0,-2.043460369E0,-4.489231110E-2,1.229455471E-1,2.047647725E0
1.146926530E0,-2.154888153E0,8.017635345E-2,4.048610032E-1,2.194056433E0
1.151724238E0,-2.315105438E0,2.613992691E-1,6.894397140E-1,2.429685142E0
1.156521999E0,-2.293129921E0,3.488893509E-1,9.333189726E-1,2.500250571E0
1.161319759E0,-2.189852238E0,3.764486313E-1,1.027470827E0,2.448032413E0
1.166117519E0,-2.169215202E0,3.888306618E-1,1.069920540E0,2.449778324E0
1.170915280E0,-2.216169357E0,4.167060852E-1,1.096315861E0,2.507380914E0
1.175712988E0,-2.275884628E0,4.649467468E-1,1.074168444E0,2.559231167E0
1.180510749E0,-2.299126625E0,4.935364723E-1,9.323417544E-1,2.529589420E0
1.185308509E0,-2.284482479E0,4.554252625E-1,6.955435276E-1,2.431060091E0
1.190106269E0,-2.235082626E0,3.655600548E-1,4.043563008E-1,2.300593949E0
1.194903978E0,-2.210904121E0,2.553544044E-1,1.594144702E-1,2.231303628E0
1.199701738E0,-2.203543186E0,1.834287643E-1,3.517866135E-4,2.211164582E0
1.204499499E0,-2.217705250E0,8.054399490E-2,-7.618063688E-2,2.220474589E0
1.209297259E0,-2.278277397E0,-9.253025055E-2,-4.771202803E-2,2.280654771E0
1.214095019E0,-2.355467796E0,-3.150215149E-1,7.226175070E-2,2.377538402E0
1.218892728E0,-2.467159748E0,-5.043849945E-1,2.204337716E-1,2.527819711E0
1.223690488E0,-2.602311611E0,-6.644144058E-1,4.194779992E-1,2.718351342E0
1.228488249E0,-2.745230198E0,-8.036012650E-1,5.994238853E-1,2.922562716E0
1.233286009E0,-2.868564606E0,-1.006438732E0,7.810907364E-1,3.138739326E0
1.238083769E0,-2.945327759E0,-1.268689632E0,9.332549572E-1,3.339984103E0
1.242881478E0,-2.963263035E0,-1.538170338E0,1.075091243E0,3.507522912E0
1.247679238E0,-2.912812710E0,-1.803309917E0,1.169624805E0,3.620003691E0
1.252476999E0,-2.805848598E0,-2.031280518E0,1.225944757E0,3.674483290E0
1.257274759E0,-2.625904083E0,-2.215264797E0,1.264712334E0,3.660910770E0
1.262072467E0,-2.369127750E0,-2.369314671E0,1.294707298E0,3.592030804E0
1.266870228E0,-2.029621601E0,-2.535771370E0,1.267771602E0,3.486652423E0
1.271667988E0,-1.627785683E0,-2.706701279E0,1.190677404E0,3.375445263E0
1.276465749E0,-1.197927475E0,-2.862570286E0,1.067281008E0,3.281528245E0
1.281263509E0,-7.782564163E-1,-2.951105595E0,9.715017080E-1,3.202892888E0
1.286061217E0,-4.066238403E-1,-2.906298637E0,8.347402811E-1,3.051017216E0
1.290858978E0,-8.845329285E-2,-2.873645306E0,6.419528723E-1,2.945804613E0
1.295656738E0,1.772494316E-1,-2.914214134E0,3.365220428E-1,2.938929817E0
