"Time (s)","Linear Acceleration x (m/s^2)","Linear Acceleration y (m/s^2)","Linear Acceleration z (m/s^2)","Absolute acceleration (m/s^2)"
1.090559000E-2,0.000000000E0,0.000000000E0,0.000000000E0,0.000000000E0
1.579902800E-2,1.292471886E-1,-5.249166489E-2,3.151893616E-2,1.430162717E-1
2.069303800E-2,7.087564468E-2,-1.974720955E-1,-1.238875389E-1,2.436528428E-1
2.558694400E-2,-9.892416000E-2,1.749763489E-1,-1.333637238E-1,2.412231227E-1
3.048085000E-2,-6.953334808E-2,1.722230911E-1,-2.108097076E-2,1.869226764E-1
3.537475700E-2,-5.817937851E-2,8.485698700E-2,4.245233536E-2,1.113002655E-1
4.026861100E-2,-7.439088821E-2,-6.816482544E-2,5.422401428E-2,1.145455866E-1
4.516251700E-2,-1.767330170E-1,-1.645312309E-1,-6.622409821E-2,2.503811423E-1
5.005642300E-2,-5.633068085E-1,-5.387401581E-2,-5.177450180E-1,7.669920950E-1
5.495033000E-2,-1.007299900E0,2.826995850E-1,-8.338842392E-1,1.337884550E0
5.984423600E-2,-1.664755344E0,3.830432892E-1,-1.283372402E0,2.136627539E0
6.473814200E-2,-1.746770382E0,4.648756981E-1,-1.016232491E0,2.073654903E0
6.963199600E-2,-1.747184753E0,5.188393593E-1,-8.105010986E-1,1.994683151E0
7.452590300E-2,-2.252210140E0,8.250422478E-1,-1.740661860E0,2.963620916E0
7.941980900E-2,-3.027471542E0,1.348437786E0,-2.372410297E0,4.075806549E0
8.431371500E-2,-3.481968880E0,1.588547707E0,-1.403906107E0,4.076584778E0
8.920762100E-2,-4.016109467E0,1.802141190E0,-8.452329636E-1,4.482328288E0
9.410147500E-2,-4.650625229E0,1.876944542E0,-5.933194160E-1,5.050075619E0
9.899538200E-2,-5.187379360E0,1.773426056E0,-5.101733208E-1,5.505835215E0
1.038892880E-1,-5.496109009E0,1.650729179E0,-5.461239815E-1,5.764579123E0
1.087831940E-1,-5.613001823E0,1.503398895E0,-6.963229179E-1,5.852423713E0
1.136771000E-1,-5.558631897E0,1.356194496E0,-7.415490150E-1,5.769536118E0
1.185710070E-1,-5.242191315E0,1.128028870E0,-5.824179649E-1,5.393721312E0
1.234649130E-1,-4.721546173E0,9.220099449E-1,-4.523918629E-1,4.831951883E0
1.283587670E-1,-4.170227051E0,6.589426994E-1,-3.735470772E-1,4.238459219E0
1.332526730E-1,-3.596249580E0,4.518165588E-1,-2.527875900E-1,3.633325035E0
1.381465800E-1,-3.064498901E0,6.693029404E-2,-1.358053684E-1,3.068236673E0
1.430404860E-1,-2.603038788E0,-4.010019302E-1,-1.470510960E-1,2.637847134E0
1.479343920E-1,-2.247108459E0,-7.938995361E-1,1.667037010E-1,2.389050654E0
1.528282460E-1,-1.810848236E0,-1.289263248E0,3.249514103E-1,2.246545009E0
1.577221530E-1,-1.287702560E0,-1.825367451E0,3.212988377E-1,2.256851160E0
1.626160590E-1,-7.736225128E-1,-2.395563602E0,5.578873158E-1,2.578459816E0
1.675099650E-1,-2.923555374E-1,-2.896262169E0,8.469700813E-1,3.031693360E0
1.724038710E-1,1.980514526E-1,-3.277953148E0,1.095154285E0,3.461728488E0
1.772977780E-1,8.574528694E-1,-3.651905060E0,1.221246004E0,3.945006691E0
1.821916320E-1,1.667867661E0,-4.093125343E0,1.161129713E0,4.569866499E0
1.870855380E-1,2.444142342E0,-4.677589417E0,9.900386333E-1,5.369716103E0
1.919794440E-1,3.212768078E0,-5.286294937E0,8.314859867E-1,6.241647365E0
1.968733500E-1,3.964828491E0,-5.814685345E0,8.114440441E-1,7.084410495E0
2.017672570E-1,4.598113060E0,-6.473949432E0,6.795330048E-1,7.969719573E0
2.066611110E-1,5.095569134E0,-7.204748631E0,6.988990307E-1,8.852213705E0
2.115550170E-1,5.542422295E0,-8.014896393E0,7.918641567E-1,9.776709974E0
2.164489230E-1,6.004911423E0,-8.667025566E0,1.057724833E0,1.059693707E1
2.213428300E-1,6.259701729E0,-9.097498894E0,1.445954561E0,1.113728587E1
2.262367360E-1,6.394028187E0,-9.253713608E0,1.820489645E0,1.139425270E1
2.311306420E-1,6.549251080E0,-9.247714996E0,1.920169115E0,1.149347518E1
2.360244960E-1,6.572906494E0,-9.081744194E0,1.908011079E0,1.137196921E1
2.409184030E-1,6.474765778E0,-8.767358780E0,1.910599470E0,1.106524117E1
2.458123090E-1,6.231624603E0,-8.479616165E0,1.861704111E0,1.068657933E1
2.507062150E-1,5.832637310E0,-8.342768669E0,1.553979158E0,1.029739279E1
2.555065800E-1,5.383118153E0,-8.286545753E0,9.992456436E-1,9.931933016E0
2.603044960E-1,4.953599930E0,-8.241133690E0,7.243507504E-1,9.642568163E0
2.651024650E-1,4.475871086E0,-8.246110916E0,8.744614124E-1,9.423186827E0
2.699004340E-1,4.113500595E0,-8.213555336E0,1.335750580E0,9.282650915E0
2.746984030E-1,3.736402750E0,-8.047735214E0,2.143900871E0,9.128146501E0
2.794963710E-1,3.654430389E0,-7.851823807E0,2.862867355E0,9.121513474E0
2.842943400E-1,3.352017879E0,-7.605183601E0,3.522020578E0,9.026597943E0
2.890923090E-1,3.011515141E0,-7.237999916E0,4.013483524E0,8.807151425E0
2.938902250E-1,2.614553452E0,-6.865117073E0,4.406260490E0,8.566262527E0
2.986881940E-1,2.229924202E0,-6.413523197E0,4.679878235E0,8.246641864E0
3.034861630E-1,1.772165298E0,-6.317843914E0,4.803194046E0,8.131813734E0
3.082841320E-1,1.143148899E0,-6.414954185E0,5.140543461E0,8.299615273E0
3.130821000E-1,5.402946472E-1,-6.784860611E0,5.277441025E0,8.612643937E0
3.178800690E-1,-2.193965912E-1,-7.184133053E0,5.384374619E0,8.980612040E0
3.226779860E-1,-1.073764324E0,-7.462877274E0,5.437391281E0,9.295844823E0
3.274759550E-1,-2.039338112E0,-7.666820526E0,5.173069000E0,9.470991490E0
3.322739230E-1,-3.212378502E0,-7.583633423E0,5.494618893E0,9.900591311E0
3.370718920E-1,-3.724092007E0,-6.940166950E0,4.841130257E0,9.245070077E0
3.418698610E-1,-4.970463276E0,-6.595757484E0,4.391600609E0,9.353912437E0
3.466678300E-1,-6.493938923E0,-6.154419899E0,4.257445335E0,9.908277742E0
3.514657460E-1,-7.782215118E0,-5.734642506E0,3.982241154E0,1.045501035E1
3.562637150E-1,-9.042270660E0,-5.323709965E0,3.808854580E0,1.116297092E1
3.610616840E-1,-1.023918438E1,-4.583816528E0,2.505886316E0,1.149485698E1
3.658596530E-1,-1.139911842E1,-4.054464817E0,1.988524914E0,1.226102839E1
3.706576210E-1,-1.225259590E1,-3.786216736E0,2.156131268E0,1.300424721E1
3.754555900E-1,-1.206830978E1,-4.271981716E0,3.254596233E0,1.320932721E1
3.802535070E-1,-1.294578743E1,-3.324387074E0,-1.364534616E0,1.343528624E1
3.850514750E-1,-1.311077499E1,-4.009926796E0,2.936131001E0,1.402115541E1
3.898494440E-1,-1.403496933E1,-4.071749210E0,-9.641410112E-1,1.464544549E1
3.946474130E-1,-1.503618813E1,-4.173191547E0,3.245355368E0,1.593846958E1
3.994453820E-1,-1.578344154E1,-3.148613930E0,3.420325994E0,1.645385750E1
4.042433500E-1,-1.628080559E1,-2.071106911E0,1.723808050E0,1.650229162E1
4.090412670E-1,-1.651850319E1,-1.323783398E0,7.660007477E-2,1.657163896E1
4.138392360E-1,-1.694594574E1,-2.304763794E-1,-1.152359486E0,1.698664560E1
4.186372050E-1,-1.715596771E1,9.475932121E-1,-2.748934269E0,1.740062644E1
4.234351730E-1,-1.697710419E1,2.100650311E0,-3.773968458E0,1.751792329E1
4.282331420E-1,-1.633232880E1,3.080094814E0,-4.852853775E0,1.731421779E1
4.330310590E-1,-1.594129753E1,4.016000748E0,-5.714731216E0,1.740434951E1
4.378290280E-1,-1.544583321E1,4.639054298E0,-6.442336559E0,1.736658540E1
4.426269960E-1,-1.499178696E1,4.844021320E0,-6.884088039E0,1.719328028E1
4.474249650E-1,-1.450706673E1,4.674305916E0,-7.242128372E0,1.687461242E1
4.522229340E-1,-1.415988445E1,5.077893734E0,-7.936580181E0,1.700813445E1
4.570209030E-1,-1.433585739E1,5.950465202E0,-1.018649769E1,1.856581747E1
4.618188190E-1,-1.421627522E1,6.305570126E0,-1.360485172E1,2.066288184E1
4.666167880E-1,-1.398542404E1,6.797333241E0,-1.663967133E1,2.277442615E1
4.714147570E-1,-1.331953049E1,8.016139030E0,-1.777664757E1,2.361519799E1
4.762127250E-1,-1.180101585E1,9.101202965E0,-1.595915985E1,2.183553649E1
4.810106940E-1,-1.037895584E1,1.016131210E1,-1.380933285E1,2.004177292E1
4.858086630E-1,-1.015151405E1,9.991898537E0,-1.330458641E1,1.949110806E1
4.906065800E-1,-1.047689247E1,9.337567329E0,-1.401879597E1,1.983638273E1
4.954045480E-1,-9.647199631E0,8.659267426E0,-1.401456642E1,1.909082096E1
5.002025170E-1,-8.344184875E0,8.107784271E0,-1.400669479E1,1.820848940E1
5.050004860E-1,-7.355609894E0,8.637574196E0,-1.407757854E1,1.808012452E1
5.097984550E-1,-6.269114494E0,9.234186172E0,-1.433430958E1,1.816712476E1
5.145964230E-1,-5.127635956E0,9.704578400E0,-1.442309189E1,1.812448819E1
5.193943400E-1,-3.875941277E0,1.002513695E1,-1.367523098E1,1.739362625E1
5.241923090E-1,-2.421076775E0,1.006335449E1,-1.289655972E1,1.653644366E1
5.289902780E-1,-1.336829185E0,9.695200920E0,-1.215469646E1,1.560514913E1
5.337882460E-1,-8.595676422E-1,9.186169624E0,-1.167317677E1,1.487910026E1
5.385862150E-1,-6.637458801E-1,8.663683891E0,-1.118933773E1,1.416690707E1
5.433841840E-1,-4.548559189E-1,8.071032524E0,-1.137582970E1,1.395557097E1
5.481821000E-1,-6.705999374E-1,7.496473789E0,-1.111135960E1,1.342047449E1
5.529800690E-1,-1.185236931E0,7.033158779E0,-9.881431580E0,1.218658275E1
5.577780380E-1,-1.451236725E0,6.552439690E0,-7.965984821E0,1.041621179E1
5.625760070E-1,-1.415825844E0,5.820917130E0,-6.454951286E0,8.806476887E0
5.673739750E-1,-1.234857559E0,4.928723335E0,-5.577457905E0,7.544880621E0
5.721719440E-1,-9.740104675E-1,4.065678596E0,-5.213996410E0,6.683127816E0
5.769698610E-1,-8.167314529E-1,3.328803539E0,-5.001185417E0,6.062989267E0
5.817678300E-1,-6.010789871E-1,2.818613529E0,-4.788209438E0,5.588633805E0
5.865657980E-1,-2.897319794E-1,2.423027515E0,-4.564688683E0,5.176039966E0
5.913637670E-1,-4.278182983E-3,1.961370707E0,-4.386895180E0,4.805397244E0
5.961617360E-1,2.868947983E-1,1.659715652E0,-4.343988419E0,4.659098631E0
6.009597050E-1,1.008525848E0,1.496860981E0,-4.455502987E0,4.807205430E0
6.057576210E-1,1.288697243E0,1.378132820E0,-3.863383770E0,4.299502856E0
6.105555900E-1,1.269010544E0,1.543598175E0,-3.919353485E0,4.399365276E0
6.153535590E-1,1.436628342E0,1.574389219E0,-3.786907196E0,4.345488294E0
6.201515280E-1,1.660483837E0,1.752351761E0,-3.589192867E0,4.325534499E0
6.249494960E-1,1.773003101E0,1.805666447E0,-3.237423897E0,4.109122145E0
6.297474650E-1,1.636403084E0,2.378738880E0,-2.959408998E0,4.134527220E0
6.345453820E-1,1.795122147E0,2.910145044E0,-2.819225311E0,4.431640673E0
6.393433500E-1,2.209463120E0,2.732408285E0,-2.883613825E0,4.545658479E0
6.441413190E-1,2.870611668E0,2.990683556E0,-2.932232380E0,5.077655582E0
6.489392880E-1,3.454427242E0,3.562144279E0,-2.715137005E0,5.656315797E0
6.537372570E-1,2.694777489E0,4.620120049E0,-2.398883343E0,5.861908927E0
6.585352250E-1,3.135569572E0,3.924177885E0,-1.794603109E0,5.334001213E0
6.633331420E-1,3.489470005E0,3.056126595E0,-1.436796904E0,4.855995883E0
6.681311110E-1,4.629405499E0,1.272827864E0,-6.839111447E-1,4.849661895E0
6.729290800E-1,5.947855949E0,-6.098012924E-1,-6.710990667E-1,6.016578926E0
6.777270480E-1,5.703653336E0,-1.643719673E-1,-6.327320337E-1,5.740995501E0
6.825250170E-1,5.501642227E0,-3.487014771E-2,2.429366112E-3,5.501753268E0
6.873229860E-1,5.873421669E0,-1.116067886E0,8.563699126E-1,6.039541295E0
6.921209030E-1,6.294013500E0,-2.233655453E0,1.019783616E0,6.756018150E0
6.969188710E-1,6.733724117E0,-2.725420475E0,9.224700928E-1,7.322698159E0
7.017168400E-1,7.073041439E0,-2.687529564E0,8.931677341E-1,7.618955241E0
7.065148090E-1,7.056186676E0,-2.266496658E0,1.146186113E0,7.499367981E0
7.113127780E-1,6.921419621E0,-1.969575882E0,1.446400404E0,7.340119403E0
7.161107460E-1,6.565806389E0,-1.911152363E0,1.863860607E0,7.087756574E0
7.209086630E-1,5.732831955E0,-1.844798088E0,1.808966398E0,6.288163614E0
7.257066320E-1,5.143975258E0,-1.531470299E0,2.063197613E0,5.750014532E0
7.305046000E-1,4.754479885E0,-1.188307762E0,2.293390751E0,5.410803586E0
7.353025690E-1,3.367277145E0,-7.702832222E-1,1.989330530E0,3.986141941E0
7.401005380E-1,1.880232811E0,-3.306996822E-1,1.674188018E0,2.539201296E0
7.448985070E-1,1.525687218E0,2.697041035E-1,1.803708076E0,2.377777242E0
7.496964230E-1,1.435439587E0,6.630516052E-1,2.330741882E0,2.816466219E0
7.544943920E-1,1.125113487E0,7.431764603E-1,2.922287464E0,3.218377795E0
7.592923610E-1,5.011048317E-1,6.241497993E-1,2.866438866E0,2.976094890E0
7.640903300E-1,1.325979233E-1,-2.967250347E-1,2.709822655E0,2.729242894E0
7.688882980E-1,1.307058334E-1,-1.340561390E0,2.579015255E0,2.909554698E0
7.736862670E-1,1.569652557E-1,-1.802822351E0,2.568637848E0,3.142086395E0
7.784842360E-1,2.369289398E-1,-1.790392637E0,2.532093048E0,3.110166607E0
7.832821530E-1,6.076245308E-1,-1.428695917E0,2.509366512E0,2.950813428E0
7.880801210E-1,1.197443008E0,-1.099583387E0,2.301154137E0,2.817492457E0
7.928780900E-1,1.436003208E0,-8.470928669E-1,1.811907053E0,2.462250740E0
7.976760590E-1,2.272250175E0,-9.177706242E-1,1.609731913E0,2.932006243E0
8.024740280E-1,2.425609112E0,-1.080312252E0,1.695778608E0,3.150606166E0
8.072719960E-1,2.281541824E0,-1.103128910E0,2.158775568E0,3.329059693E0
8.120699130E-1,1.920028210E0,-1.188248634E0,1.962505817E0,2.991633705E0
8.168678820E-1,1.412365437E0,-1.428495884E0,3.057449579E0,3.658329475E0
8.216658500E-1,1.496194363E0,-1.575308800E0,3.006536722E0,3.709374401E0
8.264638190E-1,1.116961002E0,-1.924601078E0,1.773888230E0,2.845763631E0
8.312617880E-1,1.188271523E0,-2.385479927E0,4.877836108E-1,2.709324001E0
8.360597570E-1,2.061236382E0,-2.558123589E0,3.963037133E-1,3.309040397E0
8.408577250E-1,2.744912148E0,-3.497126579E0,-1.875376999E-1,4.449674977E0
8.456556420E-1,3.259814739E0,-3.972900391E0,-1.439731717E-1,5.141114463E0
8.504536110E-1,4.166201591E0,-4.682706833E0,-6.608428955E-1,6.302514761E0
8.552515800E-1,4.740608215E0,-5.440950394E0,1.391708106E-1,7.217802709E0
8.600495480E-1,5.354166985E0,-5.724476337E0,-3.257707357E-1,7.844925749E0
8.648475170E-1,5.365245819E0,-5.534721851E0,-1.042863011E0,7.778597041E0
8.696454860E-1,5.614415169E0,-4.534117699E0,-2.135495663E0,7.525969886E0
8.744434550E-1,4.456319809E0,-4.285239220E0,-1.776036024E0,6.432446297E0
8.792413710E-1,3.919757843E0,-5.297523022E0,-1.822500229E0,6.837379527E0
8.840393400E-1,3.350773811E0,-5.594626427E0,-2.040275335E0,6.833026667E0
8.888373090E-1,2.906895638E0,-5.035609245E0,-2.044153929E0,6.163275753E0
8.936352780E-1,2.347415447E0,-3.970529079E0,-1.928791165E0,4.999569563E0
8.984332460E-1,1.744041443E0,-2.794128418E0,-1.122744203E0,3.479854697E0
9.032312150E-1,9.626450539E-1,-2.445330620E0,1.396125555E-1,2.631695082E0
9.080291320E-1,2.696695328E-1,-2.368525028E0,7.491385341E-1,2.498767898E0
9.128271000E-1,-3.786349297E-1,-2.100322247E0,5.161842704E-1,2.195714952E0
9.176250690E-1,-1.173197746E0,-2.032245159E0,-1.165987179E-2,2.346603778E0
9.224230380E-1,-2.227949142E0,-2.175210953E0,-4.824682772E-1,3.150884909E0
9.272210070E-1,-3.401715755E0,-2.468522549E0,-9.545602798E-1,4.310041645E0
9.320189750E-1,-4.366532326E0,-2.793875694E0,-1.672588468E0,5.447008181E0
9.368168920E-1,-5.012803555E0,-3.178319931E0,-2.551932812E0,6.460826428E0
9.416148610E-1,-5.523778915E0,-3.632319927E0,-3.341051579E0,7.407327940E0
9.464128300E-1,-6.214053154E0,-3.950456142E0,-4.354879856E0,8.554854697E0
9.512107980E-1,-7.198064804E0,-4.121919632E0,-5.661026001E0,1.004238885E1
9.560087670E-1,-8.700944901E0,-4.188555241E0,-7.287076950E0,1.209760008E1
9.608067360E-1,-1.043812752E1,-4.733876705E0,-8.680233002E0,1.437743161E1
9.656047050E-1,-1.196638203E1,-5.701990604E0,-7.958384037E0,1.546101136E1
9.704026210E-1,-1.263289833E1,-6.390569687E0,-6.413996220E0,1.554248528E1
9.752005900E-1,-1.277518272E1,-6.566481590E0,-4.685196400E0,1.510877359E1
9.799985590E-1,-1.302961636E1,-7.068034172E0,-3.785912275E0,1.529905687E1
9.847965280E-1,-1.397452354E1,-8.426680565E0,-2.025693417E0,1.644383433E1
9.895944960E-1,-1.463507843E1,-9.561967850E0,-2.980738580E-1,1.748443873E1
9.943924650E-1,-1.473210239E1,-9.965286255E0,7.333976030E-1,1.780111354E1
9.991904340E-1,-1.459545231E1,-9.492188454E0,1.030930758E0,1.744109194E1
1.003988350E0,-1.447206306E1,-9.292350769E0,1.892389536E0,1.730229841E1
1.008786319E0,-1.451460171E1,-9.076498032E0,2.816979885E0,1.734911683E1
1.013584288E0,-1.477500629E1,-9.025730133E0,3.649369717E0,1.769413786E1
1.018382257E0,-1.507901573E1,-9.326768875E0,4.553688049E0,1.830577526E1
1.023180225E0,-1.535032654E1,-9.829672813E0,4.329556942E0,1.873499548E1
1.027978194E0,-1.570072937E1,-1.060264111E1,3.151609659E0,1.920576852E1
1.032776163E0,-1.599224281E1,-1.080176640E1,4.459551334E0,1.980700850E1
1.037574080E0,-1.615170288E1,-1.070747948E1,6.489630222E0,2.043631383E1
1.042372048E0,-1.603314972E1,-1.090288067E1,8.627527237E0,2.122189725E1
1.047170017E0,-1.550658226E1,-1.141419029E1,1.045649815E1,2.191064095E1
1.051967986E0,-1.475000668E1,-1.211644554E1,1.217882442E1,2.264276295E1
1.056765955E0,-1.285008144E1,-1.226026535E1,1.324423981E1,2.215510297E1
1.061563923E0,-1.091674328E1,-1.124775410E1,1.295166397E1,2.033304836E1
1.066361892E0,-8.641690254E0,-9.160139084E0,1.192859268E1,1.734584336E1
1.071159809E0,-6.631443977E0,-5.886807919E0,1.094124889E1,1.408337616E1
1.075957778E0,-4.785358429E0,-2.272881508E0,9.888752937E0,1.121842593E1
1.080755746E0,-2.808227539E0,-3.289947510E-1,8.596169472E0,9.049226986E0
1.085553715E0,-1.309158325E0,1.016260147E0,7.378225327E0,7.562069107E0
1.090351684E0,2.066135406E-1,2.440140247E0,7.315546989E0,7.714544791E0
1.095149600E0,1.605196476E0,3.992678404E0,7.945432663E0,9.035930321E0
1.099947569E0,2.786747932E0,5.373876095E0,1.027255821E1,1.192350454E1
1.104745538E0,3.957097530E0,6.258904934E0,1.141394329E1,1.360553613E1
1.109543507E0,4.897045135E0,6.832097530E0,1.213702679E1,1.476367254E1
1.114341475E0,6.153564930E0,7.466720104E0,1.247051048E1,1.578391276E1
1.119139444E0,8.353477478E0,8.448060989E0,1.235533524E1,1.714073013E1
1.123937413E0,1.045476341E1,8.930076599E0,1.153299904E1,1.794598598E1
1.128735382E0,1.164441586E1,9.104063034E0,1.021921158E1,1.796965970E1
1.133533298E0,1.289538860E1,9.533879280E0,8.173441887E0,1.799975149E1
1.138331267E0,1.474700928E1,8.529193878E0,3.207024574E0,1.733512150E1
1.143129236E0,1.621201706E1,2.634519577E0,-5.793976307E0,1.741666880E1
1.147927205E0,1.781157303E1,-1.103787899E0,-1.356974983E1,2.241893378E1
1.152725173E0,1.808895111E1,-8.774352074E-1,-1.905766869E1,2.629020313E1
1.157523142E0,1.792811203E1,1.692940474E0,-2.136544037E1,2.794217763E1
1.162321059E0,1.729047775E1,3.524309158E0,-1.963333702E1,2.639790330E1
1.167119028E0,1.654853821E1,3.175319910E0,-1.457807350E1,2.228131505E1
1.171916996E0,1.629714394E1,2.144870758E0,-7.964250088E0,1.826544964E1
1.176714965E0,1.678330231E1,2.073480844E0,-2.302470684E0,1.706692504E1
1.181512934E0,1.691376877E1,2.566517830E0,6.930264831E-1,1.712141564E1
1.186310903E0,1.671726990E1,3.400004864E0,2.157616377E0,1.719541957E1
1.191108819E0,1.642266464E1,4.334263802E0,2.803384304E0,1.721478203E1
1.195906788E0,1.590512753E1,5.464687824E0,3.271799803E0,1.713302567E1
1.200704757E0,1.585447121E1,6.205978394E0,2.730677128E0,1.724340519E1
1.205502725E0,1.571354866E1,7.198029518E0,1.974216461E0,1.739611368E1
1.210300694E0,1.504405022E1,7.920446396E0,1.735925913E0,1.709006603E1
1.215098663E0,1.426541615E1,8.428724289E0,9.497748613E-1,1.659661300E1
1.219896632E0,1.350728035E1,8.913832664E0,4.950297475E-1,1.619098792E1
1.224694600E0,1.265068340E1,9.490118027E0,3.140123487E-1,1.581773481E1
1.229492517E0,1.191082382E1,9.771007538E0,1.749191880E-1,1.540684618E1
1.234290486E0,1.132998562E1,1.007970428E1,2.840563059E-1,1.516738938E1
1.239088455E0,1.056460667E1,1.000325012E1,-6.970882416E-3,1.454908848E1
1.243886423E0,7.520095825E0,8.469686508E0,-2.041241884E0,1.150887046E1
1.248684392E0,6.576794624E0,8.420404434E0,4.634654820E-1,1.069449572E1
1.253482361E0,8.781581879E0,8.907954216E0,8.065416813E-1,1.253468540E1
1.258280330E0,6.871433735E0,8.351285934E0,-4.357995987E-1,1.082360844E1
1.263078246E0,3.714780807E0,7.505129814E0,-3.542487025E-1,8.381650322E0
1.267876215E0,2.280148029E0,6.494070053E0,2.319040298E-1,6.886639265E0
1.272674184E0,1.197374821E0,5.541741848E0,6.876192689E-1,5.711167081E0
1.277472153E0,5.566835403E-2,5.323277473E0,5.379778147E-1,5.350682401E0
1.282270121E0,-1.184116364E0,5.459455490E0,1.634871960E-2,5.586416838E0
1.287068090E0,-1.832187653E0,5.840088844E0,2.090403438E-1,6.124316057E0
1.291866059E0,-1.833007812E0,6.011656284E0,4.733005166E-1,6.302693258E0
1.296663975E0,-1.298890591E0,5.985182285E0,6.435868144E-1,6.158224399E0
1.301461944E0,-7.565445900E-1,5.699908257E0,7.464716434E-1,5.798149167E0
1.306259913E0,-2.586879730E-1,5.259586334E0,7.184683084E-1,5.314730904E0
1.311057882E0,6.033868790E-1,4.785031796E0,6.231577396E-1,4.863016613E0
1.315855850E0,1.553696871E0,4.287745476E0,2.103228569E-1,4.565410270E0
